date	time	module	serial	modype	area[m²]	
17.10.2025	15:00:03	PERC2_fixed_1MD439	my serial number	my module type	2.000000	
Sensorlist first point:
interface	channel	name	scalefactor	measurement value
COM1 301 Pyr 0.000009100 1041.452088

Monitor Cells:
interface	name	monitor channel	Channel-RTD4W	value	temperature	TempCorrIrradiance
COM1 015-2017 303 304 0.050835 39.080000 1034.273856
COM1 019-2017 305 306 0.052278 37.490000 1405.693923

Temperatures:
channel name	value	interface	voltage channel	current channel

electronic load: 
unit_id	port_type	port_number	SN	firmware	sweep_mode
8	TCP	192.168.152.8	ESL-SOLAR-500   SN  19.24.4495  	ET-ESL---------DEV-ET1502--U00008-V2.00.031	CV

Software Version: D:\measurement_programs\Outdoor_Dauer_Main_LV2012_ET2016_16bit_Messbereichsumschalter\Outdoor_Dauer_Main_LV2012_ET2016_16bit_v4.2_Autorange.exe\Outdoor_Dauer_Main_LV2012_ET2016_16bit_v4.2.vi-LV2012-ET2016_16bit_4.2_20170803
irradiation fluctuation in % according to monitor cell: 0.140672
Pmax	Imax	Umax	I@pmax	U@Pmax	FF_raw	Eta_raw	E0_pyr	MPPFit	IscFit	UocFit	EtaFit	ImppFit	UmppFit	FF_fit	MSE_MPPFit	Irradiation Fluctuation_in_percent		015-2017	019-2017	015-2017_temperature	019-2017_temperature
19.15	4.4456	5.404	4.2802	4.474	0.797	0.009	1041.5	19.15	4.4436	5.404	0.009	4.2704	4.484	0.797	0.00	0.1407		1034.27	1405.69	39.1	37.5	
U_raw[V]	I_raw[A]	P_raw[A]	
5.404200	0.000000	0.000000
4.871600	3.486800	16.986500
4.764900	3.798400	18.098900
4.672200	4.006900	18.721000
4.565800	4.171200	19.044900
4.474000	4.280200	19.149500
4.371500	4.352900	19.028800
4.274900	4.398000	18.801100
4.171000	4.423200	18.449100
4.071900	4.431000	18.042400
3.968600	4.436300	17.605900
3.848000	4.430300	17.047900
3.738600	4.410800	16.490500
3.693500	4.412700	16.298300
3.605200	4.413800	15.912600
3.474300	4.434700	15.407100
3.372900	4.432600	14.950500
3.272600	4.437600	14.522600
3.168900	4.436700	14.059600
3.073000	4.436000	13.632000
2.970000	4.435600	13.173700
2.872100	4.434700	12.736600
2.770400	4.434200	12.284600
2.674100	4.436900	11.864700
2.570600	4.433700	11.397400
2.475600	4.433300	10.975100
2.371500	4.434400	10.516200
2.275300	4.434000	10.088800
2.169800	4.434000	9.621000
2.074400	4.434400	9.198700
1.973000	4.431900	8.744100
1.875700	4.433500	8.316000
1.774100	4.431900	7.862600
1.678400	4.434000	7.442000
1.573400	4.433300	6.975100
1.473300	4.436900	6.537100
1.370800	4.436500	6.081500
1.272800	4.439500	5.650700
1.170100	4.439000	5.193900
1.075800	4.439500	4.775800
0.973000	4.439500	4.319600
0.875700	4.445600	3.893100
0.773200	4.442900	3.435100
0.680200	4.442700	3.022100
0.575200	4.443800	2.556000
0.480200	4.442000	2.133000
0.378100	4.441100	1.679200
0.282700	4.440800	1.255300
0.176900	4.441500	0.785800
0.101600	4.443100	0.451500
0.099800	4.443100	0.443400
