date	time	module	serial	modype	area[m²]	
17.10.2025	13:40:03	PERC2_fixed_1MD439	my serial number	my module type	2.000000	
Sensorlist first point:
interface	channel	name	scalefactor	measurement value
COM1 301 Pyr 0.000009100 830.462527

Monitor Cells:
interface	name	monitor channel	Channel-RTD4W	value	temperature	TempCorrIrradiance
COM1 015-2017 303 304 0.039590 32.716000 805.494608
COM1 019-2017 305 306 0.040957 32.100000 1101.283194

Temperatures:
channel name	value	interface	voltage channel	current channel

electronic load: 
unit_id	port_type	port_number	SN	firmware	sweep_mode
8	TCP	192.168.152.8	ESL-SOLAR-500   SN  19.24.4495  	ET-ESL---------DEV-ET1502--U00008-V2.00.031	CV

Software Version: D:\measurement_programs\Outdoor_Dauer_Main_LV2012_ET2016_16bit_Messbereichsumschalter\Outdoor_Dauer_Main_LV2012_ET2016_16bit_v4.2_Autorange.exe\Outdoor_Dauer_Main_LV2012_ET2016_16bit_v4.2.vi-LV2012-ET2016_16bit_4.2_20170803
irradiation fluctuation in % according to monitor cell: -0.027810
Pmax	Imax	Umax	I@pmax	U@Pmax	FF_raw	Eta_raw	E0_pyr	MPPFit	IscFit	UocFit	EtaFit	ImppFit	UmppFit	FF_fit	MSE_MPPFit	Irradiation Fluctuation_in_percent		015-2017	019-2017	015-2017_temperature	019-2017_temperature
391.23	10.0938	50.545	9.3424	41.877	0.767	0.236	830.5	389.49	10.0805	50.545	0.235	9.0867	42.863	0.764	10.19	-0.0278		805.49	1101.28	32.7	32.1	
U_raw[V]	I_raw[A]	P_raw[A]	
50.544700	0.000000	0.000000
50.162500	0.885600	44.421800
49.116500	3.048100	149.710300
48.084200	4.794500	230.537900
47.052000	6.181500	290.852000
46.015100	7.253800	333.785900
44.978300	8.068200	362.893900
43.943700	8.652300	380.215000
42.909100	9.068700	389.128600
41.876900	9.342400	391.230900
40.730100	8.943900	364.287300
39.663500	8.770900	347.884400
38.645000	8.803800	340.224600
37.628700	8.824700	332.061400
36.699500	8.835000	324.238900
35.836600	8.942800	320.478500
35.076700	9.065700	317.994300
33.607200	9.574700	321.780200
32.577200	9.575600	311.948200
31.542700	9.577700	302.106600
30.505800	9.587300	292.469200
29.478100	9.596000	282.872800
28.439000	9.611600	273.343800
27.395300	9.620700	263.562800
26.367600	9.632400	253.983400
25.330700	9.631500	243.972900
24.296200	9.633100	234.047400
23.266200	9.637200	224.221300
22.238500	9.651200	214.627700
21.190200	9.656700	204.626900
20.164800	9.659400	194.780200
19.134800	9.662600	184.892500
18.086500	9.669700	174.891600
17.061100	9.674100	165.050300
16.024300	9.680000	155.115100
14.989700	9.685300	145.179500
13.952800	9.693300	135.249100
12.913700	9.847100	127.162700
11.886000	9.963400	118.424900
10.846900	9.961800	108.054100
9.812300	9.965400	97.784000
8.775500	9.965700	87.453300
7.738600	9.972500	77.173600
6.710900	9.983300	66.997000
5.674100	9.992000	56.695200
4.639500	9.996100	46.377000
3.598100	10.004600	35.997200
2.565800	10.014400	25.695000
1.535800	10.032000	15.407400
0.535600	10.093800	5.406200
0.345600	10.058400	3.476300
