date	time	module	serial	modype	area[m²]	
17.10.2025	13:35:03	PERC2_fixed_1MD439	my serial number	my module type	2.000000	
Sensorlist first point:
interface	channel	name	scalefactor	measurement value
COM1 301 Pyr 0.000009100 813.922198

Monitor Cells:
interface	name	monitor channel	Channel-RTD4W	value	temperature	TempCorrIrradiance
COM1 015-2017 303 304 0.038672 32.372000 786.825025
COM1 019-2017 305 306 0.040010 31.492000 1075.820059

Temperatures:
channel name	value	interface	voltage channel	current channel

electronic load: 
unit_id	port_type	port_number	SN	firmware	sweep_mode
8	TCP	192.168.152.8	ESL-SOLAR-500   SN  19.24.4495  	ET-ESL---------DEV-ET1502--U00008-V2.00.031	CV

Software Version: D:\measurement_programs\Outdoor_Dauer_Main_LV2012_ET2016_16bit_Messbereichsumschalter\Outdoor_Dauer_Main_LV2012_ET2016_16bit_v4.2_Autorange.exe\Outdoor_Dauer_Main_LV2012_ET2016_16bit_v4.2.vi-LV2012-ET2016_16bit_4.2_20170803
irradiation fluctuation in % according to monitor cell: -0.011378
Pmax	Imax	Umax	I@pmax	U@Pmax	FF_raw	Eta_raw	E0_pyr	MPPFit	IscFit	UocFit	EtaFit	ImppFit	UmppFit	FF_fit	MSE_MPPFit	Irradiation Fluctuation_in_percent		015-2017	019-2017	015-2017_temperature	019-2017_temperature
383.88	9.8650	50.563	9.1630	41.895	0.770	0.236	813.9	380.00	9.8688	50.563	0.233	8.8605	42.887	0.762	19.27	-0.0114		786.83	1075.82	32.4	31.5	
U_raw[V]	I_raw[A]	P_raw[A]	
50.563100	0.000000	0.000000
50.180800	0.884200	44.369100
49.134800	3.012100	148.000500
48.098000	4.737700	227.873600
47.068000	6.089700	286.631000
46.031100	7.143300	328.813400
45.003400	7.927900	356.782800
43.962000	8.500600	373.702200
42.934300	8.897700	382.016100
41.895200	9.163000	383.884100
40.849200	9.112800	372.251900
39.929000	8.831500	352.635000
38.679300	8.781400	339.659300
37.841600	8.824900	333.948500
36.836800	9.024700	332.441800
35.699200	9.359400	334.121700
34.664700	9.376700	325.041900
33.632400	9.378100	315.408800
32.595600	9.380600	305.767100
31.561000	9.385200	296.206700
30.524100	9.392100	286.685200
29.494200	9.400500	277.261300
28.464200	9.410400	267.859100
27.427300	9.421600	258.409500
26.390500	9.430100	248.864200
25.358200	9.430500	239.141400
24.316800	9.431900	229.353600
23.282200	9.435800	219.686300
22.252200	9.445900	210.191700
21.224500	9.454300	200.663900
20.180800	9.454300	190.796300
19.144000	9.458200	181.068000
18.114000	9.460100	171.359400
17.084000	9.466700	161.729100
16.040300	9.473800	151.962300
15.012600	9.478400	142.294900
13.971200	9.488400	132.564500
12.929700	9.656400	124.855200
11.904300	9.762600	116.217700
10.867500	9.762600	106.095300
9.830600	9.764000	95.986400
8.805200	9.764000	85.974300
7.766100	9.772500	75.893900
6.720100	9.786700	65.767200
5.701500	9.789900	55.817300
4.669300	9.795400	45.737200
3.623300	9.805700	35.528500
2.595600	9.818500	25.484500
1.563300	9.840200	15.383100
0.524100	9.860200	5.168200
0.238000	9.865000	2.348300
